Wavelength (nm),Intensity
4.179104614257812500e+02,1.028020858764648438e+02
4.181194152832031250e+02,1.028541641235351562e+02
4.183283691406250000e+02,7.191666412353515625e+01
4.185373229980468750e+02,7.200000000000000000e+01
4.187462768554687500e+02,7.191666412353515625e+01
4.189552307128906250e+02,7.233333587646484375e+01
4.191641845703125000e+02,7.282291412353515625e+01
4.193731384277343750e+02,7.298958587646484375e+01
4.195820922851562500e+02,7.308333587646484375e+01
4.197910461425781250e+02,7.316666412353515625e+01
4.200000000000000000e+02,7.333333587646484375e+01
4.202089538574218750e+02,7.366666412353515625e+01
4.204179077148437500e+02,7.383333587646484375e+01
4.206268615722656250e+02,7.416666412353515625e+01
4.208358154296875000e+02,6.116666793823242188e+01
4.210447692871093750e+02,6.116666793823242188e+01
4.212537231445312500e+02,6.190625000000000000e+01
4.214626770019531250e+02,6.190625000000000000e+01
4.216716308593750000e+02,6.190625000000000000e+01
4.218805847167968750e+02,6.190625000000000000e+01
4.220895385742187500e+02,6.190625000000000000e+01
4.222984924316406250e+02,6.190625000000000000e+01
4.225074768066406250e+02,6.190625000000000000e+01
4.227164306640625000e+02,6.190625000000000000e+01
4.229253845214843750e+02,5.000000000000000000e+01
4.231343383789062500e+02,5.000000000000000000e+01
4.233432922363281250e+02,5.000000000000000000e+01
4.235522460937500000e+02,5.000000000000000000e+01
4.237611999511718750e+02,5.000000000000000000e+01
4.239701538085937500e+02,5.000000000000000000e+01
4.241791076660156250e+02,5.000000000000000000e+01
4.243880615234375000e+02,5.000000000000000000e+01
4.245970153808593750e+02,4.362500000000000000e+01
4.248059692382812500e+02,4.362500000000000000e+01
4.250149230957031250e+02,4.362500000000000000e+01
4.252238769531250000e+02,4.362500000000000000e+01
4.254328308105468750e+02,4.362500000000000000e+01
4.256417846679687500e+02,4.362500000000000000e+01
4.258507385253906250e+02,4.362500000000000000e+01
4.260596923828125000e+02,4.362500000000000000e+01
4.262686462402343750e+02,2.927083396911621094e+01
4.264776000976562500e+02,2.617708396911621094e+01
4.266865539550781250e+02,2.544791603088378906e+01
4.268955078125000000e+02,2.466666603088378906e+01
4.271044921875000000e+02,2.466666603088378906e+01
4.273134460449218750e+02,2.466666603088378906e+01
4.275223999023437500e+02,2.466666603088378906e+01
4.277313537597656250e+02,2.466666603088378906e+01
4.279403076171875000e+02,1.925000000000000000e+01
4.281492614746093750e+02,1.925000000000000000e+01
4.283582153320312500e+02,1.925000000000000000e+01
4.285671691894531250e+02,1.925000000000000000e+01
4.287761230468750000e+02,1.925000000000000000e+01
4.289850769042968750e+02,1.925000000000000000e+01
4.291940307617187500e+02,1.925000000000000000e+01
4.294029846191406250e+02,1.925000000000000000e+01
4.296119384765625000e+02,1.925000000000000000e+01
4.298208923339843750e+02,1.925000000000000000e+01
4.300298461914062500e+02,1.925000000000000000e+01
4.302388000488281250e+02,1.925000000000000000e+01
4.304477539062500000e+02,2.566666603088378906e+01
4.306567077636718750e+02,2.550000000000000000e+01
4.308656616210937500e+02,2.541666603088378906e+01
4.310746154785156250e+02,2.533333396911621094e+01
4.312835693359375000e+02,2.754166603088378906e+01
4.314925231933593750e+02,2.754166603088378906e+01
4.317015075683593750e+02,2.754166603088378906e+01
4.319104614257812500e+02,2.754166603088378906e+01
4.321194152832031250e+02,2.754166603088378906e+01
4.323283691406250000e+02,2.754166603088378906e+01
4.325373229980468750e+02,2.754166603088378906e+01
4.327462768554687500e+02,2.754166603088378906e+01
4.329552307128906250e+02,2.833333396911621094e+01
4.331641845703125000e+02,2.833333396911621094e+01
4.333731384277343750e+02,2.833333396911621094e+01
4.335820922851562500e+02,2.833333396911621094e+01
4.337910461425781250e+02,2.833333396911621094e+01
4.340000000000000000e+02,2.833333396911621094e+01
4.342089538574218750e+02,2.833333396911621094e+01
4.344179077148437500e+02,2.833333396911621094e+01
4.346268615722656250e+02,5.863541793823242188e+01
4.348358154296875000e+02,5.855208206176757812e+01
4.350447692871093750e+02,5.863541793823242188e+01
4.352537231445312500e+02,5.863541793823242188e+01
4.354626770019531250e+02,5.863541793823242188e+01
4.356716308593750000e+02,5.855208206176757812e+01
4.358805847167968750e+02,5.855208206176757812e+01
4.360895385742187500e+02,5.863541793823242188e+01
4.362984924316406250e+02,5.929166793823242188e+01
4.365074768066406250e+02,5.934375000000000000e+01
4.367164306640625000e+02,5.944791793823242188e+01
4.369253845214843750e+02,5.956250000000000000e+01
4.371343383789062500e+02,5.969791793823242188e+01
4.373432922363281250e+02,5.980208206176757812e+01
4.375522460937500000e+02,5.990625000000000000e+01
4.377611999511718750e+02,5.995833206176757812e+01
4.379701538085937500e+02,5.865625000000000000e+01
4.381791076660156250e+02,5.882291793823242188e+01
4.383880615234375000e+02,5.914583206176757812e+01
4.385970153808593750e+02,5.948958206176757812e+01
4.388059692382812500e+02,5.957291793823242188e+01
4.390149230957031250e+02,5.956250000000000000e+01
4.392238769531250000e+02,5.940625000000000000e+01
4.394328308105468750e+02,5.932291793823242188e+01
4.396417846679687500e+02,6.032291793823242188e+01
4.398507385253906250e+02,6.032291793823242188e+01
4.400596923828125000e+02,6.032291793823242188e+01
4.402686462402343750e+02,6.032291793823242188e+01
4.404776000976562500e+02,6.032291793823242188e+01
4.406865539550781250e+02,6.032291793823242188e+01
4.408955078125000000e+02,6.032291793823242188e+01
4.411044921875000000e+02,6.032291793823242188e+01
4.413134460449218750e+02,7.487500000000000000e+01
4.415223999023437500e+02,7.519791412353515625e+01
4.417313537597656250e+02,7.559375000000000000e+01
4.419403076171875000e+02,7.595833587646484375e+01
4.421492614746093750e+02,7.628125000000000000e+01
4.423582153320312500e+02,7.630208587646484375e+01
4.425671691894531250e+02,7.623958587646484375e+01
4.427761230468750000e+02,7.620833587646484375e+01
4.429850769042968750e+02,7.582291412353515625e+01
4.431940307617187500e+02,7.591666412353515625e+01
4.434029846191406250e+02,7.598958587646484375e+01
4.436119384765625000e+02,7.608333587646484375e+01
4.438208923339843750e+02,7.625000000000000000e+01
4.440298461914062500e+02,7.632291412353515625e+01
4.442388000488281250e+02,7.641666412353515625e+01
4.444477539062500000e+02,7.648958587646484375e+01
4.446567077636718750e+02,9.433333587646484375e+01
4.448656616210937500e+02,9.475000000000000000e+01
4.450746154785156250e+02,9.533333587646484375e+01
4.452835693359375000e+02,9.600000000000000000e+01
4.454925231933593750e+02,9.741666412353515625e+01
4.457015075683593750e+02,9.841666412353515625e+01
4.459104614257812500e+02,9.958333587646484375e+01
4.461194152832031250e+02,1.003333358764648438e+02
4.463283691406250000e+02,1.015416641235351562e+02
4.465373229980468750e+02,1.023958358764648438e+02
4.467462768554687500e+02,1.035104141235351562e+02
4.469552307128906250e+02,1.050833358764648438e+02
4.471641845703125000e+02,1.061979141235351562e+02
4.473731384277343750e+02,1.074270858764648438e+02
4.475820922851562500e+02,1.080625000000000000e+02
4.477910461425781250e+02,1.081875000000000000e+02
4.480000000000000000e+02,1.106145858764648438e+02
4.482089538574218750e+02,1.110833358764648438e+02
4.484179077148437500e+02,1.117500000000000000e+02
4.486268615722656250e+02,1.125000000000000000e+02
4.488358154296875000e+02,1.132187500000000000e+02
4.490447692871093750e+02,1.136250000000000000e+02
4.492537231445312500e+02,1.139062500000000000e+02
4.494626770019531250e+02,1.139479141235351562e+02
4.496716308593750000e+02,1.147187500000000000e+02
4.498805847167968750e+02,1.151145858764648438e+02
4.500895385742187500e+02,1.154583358764648438e+02
4.502984924316406250e+02,1.152395858764648438e+02
4.505074768066406250e+02,1.147083358764648438e+02
4.507164306640625000e+02,1.145000000000000000e+02
4.509253845214843750e+02,1.149270858764648438e+02
4.511343383789062500e+02,1.155520858764648438e+02
4.513432922363281250e+02,1.140520858764648438e+02
4.515522460937500000e+02,1.143229141235351562e+02
4.517611999511718750e+02,1.146979141235351562e+02
4.519701538085937500e+02,1.151979141235351562e+02
4.521791076660156250e+02,1.153645858764648438e+02
4.523880615234375000e+02,1.155312500000000000e+02
4.525970153808593750e+02,1.154895858764648438e+02
4.528059692382812500e+02,1.153854141235351562e+02
4.530149230957031250e+02,1.152812500000000000e+02
4.532238769531250000e+02,1.157604141235351562e+02
4.534328308105468750e+02,1.166354141235351562e+02
4.536417846679687500e+02,1.174791641235351562e+02
4.538507385253906250e+02,1.178125000000000000e+02
4.540596923828125000e+02,1.174583358764648438e+02
4.542686462402343750e+02,1.169375000000000000e+02
4.544776000976562500e+02,1.165833358764648438e+02
4.546865539550781250e+02,1.160937500000000000e+02
4.548955078125000000e+02,1.162500000000000000e+02
4.551044921875000000e+02,1.165833358764648438e+02
4.553134460449218750e+02,1.169270858764648438e+02
4.555223999023437500e+02,1.170937500000000000e+02
4.557313537597656250e+02,1.170000000000000000e+02
4.559403076171875000e+02,1.168333358764648438e+02
4.561492614746093750e+02,1.167604141235351562e+02
4.563582153320312500e+02,1.170729141235351562e+02
4.565671691894531250e+02,1.170000000000000000e+02
4.567761230468750000e+02,1.168645858764648438e+02
4.569850769042968750e+02,1.166145858764648438e+02
4.571940307617187500e+02,1.163645858764648438e+02
4.574029846191406250e+02,1.160312500000000000e+02
4.576119384765625000e+02,1.158333358764648438e+02
4.578208923339843750e+02,1.157395858764648438e+02
4.580298461914062500e+02,1.150520858764648438e+02
4.582388000488281250e+02,1.152812500000000000e+02
4.584477539062500000e+02,1.155833358764648438e+02
4.586567077636718750e+02,1.159791641235351562e+02
4.588656616210937500e+02,1.160833358764648438e+02
4.590746154785156250e+02,1.160625000000000000e+02
4.592835693359375000e+02,1.158958358764648438e+02
4.594925231933593750e+02,1.157187500000000000e+02
4.597015075683593750e+02,1.165937500000000000e+02
4.599104614257812500e+02,1.163229141235351562e+02
4.601194152832031250e+02,1.158437500000000000e+02
4.603283691406250000e+02,1.155104141235351562e+02
4.605373229980468750e+02,1.152187500000000000e+02
4.607462768554687500e+02,1.151875000000000000e+02
4.609552307128906250e+02,1.152083358764648438e+02
4.611641845703125000e+02,1.152812500000000000e+02
4.613731384277343750e+02,1.153020858764648438e+02
4.615820922851562500e+02,1.151770858764648438e+02
4.617910461425781250e+02,1.150000000000000000e+02
4.620000000000000000e+02,1.147916641235351562e+02
4.622089538574218750e+02,1.144895858764648438e+02
4.624179077148437500e+02,1.142916641235351562e+02
4.626268615722656250e+02,1.140208358764648438e+02
4.628358154296875000e+02,1.139895858764648438e+02
4.630447692871093750e+02,1.141354141235351562e+02
4.632537231445312500e+02,1.139687500000000000e+02
4.634626770019531250e+02,1.136041641235351562e+02
4.636716308593750000e+02,1.133125000000000000e+02
4.638805847167968750e+02,1.132291641235351562e+02
4.640895385742187500e+02,1.132187500000000000e+02
4.642984924316406250e+02,1.133958358764648438e+02
4.645074768066406250e+02,1.134791641235351562e+02
4.647164306640625000e+02,1.139583358764648438e+02
4.649253845214843750e+02,1.137500000000000000e+02
4.651343383789062500e+02,1.134895858764648438e+02
4.653432922363281250e+02,1.130208358764648438e+02
4.655522460937500000e+02,1.127291641235351562e+02
4.657611999511718750e+02,1.122604141235351562e+02
4.659701538085937500e+02,1.120000000000000000e+02
4.661791076660156250e+02,1.119583358764648438e+02
4.663880615234375000e+02,1.124270858764648438e+02
4.665970153808593750e+02,1.124479141235351562e+02
4.668059692382812500e+02,1.123333358764648438e+02
4.670149230957031250e+02,1.122812500000000000e+02
4.672238769531250000e+02,1.113125000000000000e+02
4.674328308105468750e+02,1.091666641235351562e+02
4.676417846679687500e+02,1.062708358764648438e+02
4.678507385253906250e+02,1.042708358764648438e+02
4.680596923828125000e+02,1.034375000000000000e+02
4.682686462402343750e+02,1.033229141235351562e+02
4.684776000976562500e+02,1.031250000000000000e+02
4.686865539550781250e+02,1.031458358764648438e+02
4.688955078125000000e+02,1.035104141235351562e+02
4.691044921875000000e+02,1.042500000000000000e+02
4.693134460449218750e+02,1.050416641235351562e+02
4.695223999023437500e+02,1.054479141235351562e+02
4.697313537597656250e+02,1.026458358764648438e+02
4.699403076171875000e+02,9.982291412353515625e+01
4.701492614746093750e+02,9.576041412353515625e+01
4.703582153320312500e+02,9.183333587646484375e+01
4.705671691894531250e+02,8.912500000000000000e+01
4.707761230468750000e+02,8.726041412353515625e+01
4.709850769042968750e+02,8.609375000000000000e+01
4.711940307617187500e+02,8.525000000000000000e+01
4.714029846191406250e+02,8.907291412353515625e+01
4.716119384765625000e+02,8.956250000000000000e+01
4.718208923339843750e+02,9.037500000000000000e+01
4.720298461914062500e+02,9.081250000000000000e+01
4.722388000488281250e+02,9.059375000000000000e+01
4.724477539062500000e+02,8.958333587646484375e+01
4.726567077636718750e+02,8.843750000000000000e+01
4.728656616210937500e+02,8.773958587646484375e+01
4.730746154785156250e+02,8.758333587646484375e+01
4.732835693359375000e+02,8.752083587646484375e+01
4.734925231933593750e+02,8.743750000000000000e+01
4.737015075683593750e+02,8.704166412353515625e+01
4.739104614257812500e+02,8.627083587646484375e+01
4.741194152832031250e+02,8.516666412353515625e+01
4.743283691406250000e+02,8.415625000000000000e+01
4.745373229980468750e+02,8.357291412353515625e+01
4.747462768554687500e+02,8.110416412353515625e+01
4.749552307128906250e+02,7.826041412353515625e+01
4.751641845703125000e+02,7.169791412353515625e+01
4.753731384277343750e+02,6.089583206176757812e+01
4.755820922851562500e+02,4.748958206176757812e+01
4.757910461425781250e+02,3.361458206176757812e+01
4.760000000000000000e+02,1.863541603088378906e+01
4.762089538574218750e+02,1.251041698455810547e+01
4.764179077148437500e+02,0.000000000000000000e+00
4.766268615722656250e+02,0.000000000000000000e+00
4.768358154296875000e+02,0.000000000000000000e+00
4.770447692871093750e+02,0.000000000000000000e+00
4.772537231445312500e+02,0.000000000000000000e+00
4.774626770019531250e+02,0.000000000000000000e+00
4.776716308593750000e+02,0.000000000000000000e+00
4.778805847167968750e+02,0.000000000000000000e+00
4.780895385742187500e+02,0.000000000000000000e+00
4.782984924316406250e+02,0.000000000000000000e+00
4.785074768066406250e+02,0.000000000000000000e+00
4.787164306640625000e+02,0.000000000000000000e+00
4.789253845214843750e+02,0.000000000000000000e+00
4.791343383789062500e+02,0.000000000000000000e+00
4.793432922363281250e+02,0.000000000000000000e+00
4.795522460937500000e+02,0.000000000000000000e+00
4.797611999511718750e+02,0.000000000000000000e+00
4.799701538085937500e+02,0.000000000000000000e+00
4.801791076660156250e+02,0.000000000000000000e+00
4.803880615234375000e+02,0.000000000000000000e+00
4.805970153808593750e+02,0.000000000000000000e+00
4.808059692382812500e+02,0.000000000000000000e+00
4.810149230957031250e+02,0.000000000000000000e+00
4.812238769531250000e+02,0.000000000000000000e+00
4.814328308105468750e+02,0.000000000000000000e+00
4.816417846679687500e+02,0.000000000000000000e+00
4.818507385253906250e+02,0.000000000000000000e+00
4.820596923828125000e+02,0.000000000000000000e+00
4.822686462402343750e+02,0.000000000000000000e+00
4.824776000976562500e+02,0.000000000000000000e+00
4.826865539550781250e+02,0.000000000000000000e+00
4.828955078125000000e+02,0.000000000000000000e+00
4.831044921875000000e+02,0.000000000000000000e+00
4.833134460449218750e+02,0.000000000000000000e+00
4.835223999023437500e+02,0.000000000000000000e+00
4.837313537597656250e+02,0.000000000000000000e+00
4.839403076171875000e+02,0.000000000000000000e+00
4.841492614746093750e+02,0.000000000000000000e+00
4.843582153320312500e+02,0.000000000000000000e+00
4.845671691894531250e+02,0.000000000000000000e+00
4.847761230468750000e+02,0.000000000000000000e+00
4.849850769042968750e+02,0.000000000000000000e+00
4.851940307617187500e+02,0.000000000000000000e+00
4.854029846191406250e+02,0.000000000000000000e+00
4.856119384765625000e+02,0.000000000000000000e+00
4.858208923339843750e+02,0.000000000000000000e+00
4.860298461914062500e+02,0.000000000000000000e+00
4.862388000488281250e+02,0.000000000000000000e+00
4.864477539062500000e+02,0.000000000000000000e+00
4.866567077636718750e+02,0.000000000000000000e+00
4.868656616210937500e+02,0.000000000000000000e+00
4.870746154785156250e+02,0.000000000000000000e+00
4.872835693359375000e+02,0.000000000000000000e+00
4.874925231933593750e+02,0.000000000000000000e+00
4.877015075683593750e+02,0.000000000000000000e+00
4.879104614257812500e+02,0.000000000000000000e+00
4.881194152832031250e+02,0.000000000000000000e+00
4.883283691406250000e+02,0.000000000000000000e+00
4.885373229980468750e+02,0.000000000000000000e+00
4.887462768554687500e+02,0.000000000000000000e+00
4.889552307128906250e+02,0.000000000000000000e+00
4.891641845703125000e+02,0.000000000000000000e+00
4.893731384277343750e+02,0.000000000000000000e+00
4.895820922851562500e+02,0.000000000000000000e+00
4.897910461425781250e+02,0.000000000000000000e+00
4.900000000000000000e+02,0.000000000000000000e+00
4.902089538574218750e+02,0.000000000000000000e+00
4.904179077148437500e+02,0.000000000000000000e+00
4.906268615722656250e+02,0.000000000000000000e+00
4.908358154296875000e+02,0.000000000000000000e+00
4.910447692871093750e+02,0.000000000000000000e+00
4.912537231445312500e+02,0.000000000000000000e+00
4.914626770019531250e+02,0.000000000000000000e+00
4.916716308593750000e+02,0.000000000000000000e+00
4.918805847167968750e+02,0.000000000000000000e+00
4.920895385742187500e+02,0.000000000000000000e+00
4.922984924316406250e+02,0.000000000000000000e+00
4.925074768066406250e+02,0.000000000000000000e+00
4.927164306640625000e+02,0.000000000000000000e+00
4.929253845214843750e+02,0.000000000000000000e+00
4.931343383789062500e+02,0.000000000000000000e+00
4.933432922363281250e+02,0.000000000000000000e+00
4.935522460937500000e+02,0.000000000000000000e+00
4.937611999511718750e+02,0.000000000000000000e+00
4.939701538085937500e+02,0.000000000000000000e+00
4.941791076660156250e+02,0.000000000000000000e+00
4.943880615234375000e+02,0.000000000000000000e+00
4.945970153808593750e+02,0.000000000000000000e+00
4.948059692382812500e+02,7.364583492279052734e+00
4.950149230957031250e+02,7.364583492279052734e+00
4.952238769531250000e+02,7.364583492279052734e+00
4.954328308105468750e+02,7.364583492279052734e+00
4.956417846679687500e+02,1.019791698455810547e+01
4.958507385253906250e+02,1.028125000000000000e+01
4.960596923828125000e+02,1.036458301544189453e+01
4.962686462402343750e+02,1.044791698455810547e+01
4.964776000976562500e+02,1.113541698455810547e+01
4.966865539550781250e+02,1.161458301544189453e+01
4.968955078125000000e+02,1.151041698455810547e+01
4.971044921875000000e+02,4.166666507720947266e+00
4.973134460449218750e+02,0.000000000000000000e+00
4.975223999023437500e+02,0.000000000000000000e+00
4.977313537597656250e+02,0.000000000000000000e+00
4.979403076171875000e+02,0.000000000000000000e+00
4.981492614746093750e+02,0.000000000000000000e+00
4.983582153320312500e+02,0.000000000000000000e+00
4.985671691894531250e+02,0.000000000000000000e+00
4.987761230468750000e+02,0.000000000000000000e+00
4.989850769042968750e+02,0.000000000000000000e+00
4.991940307617187500e+02,0.000000000000000000e+00
4.994029846191406250e+02,0.000000000000000000e+00
4.996119384765625000e+02,0.000000000000000000e+00
4.998208923339843750e+02,0.000000000000000000e+00
5.000298461914062500e+02,0.000000000000000000e+00
5.002388000488281250e+02,8.145833015441894531e+00
5.004477539062500000e+02,2.131250000000000000e+01
5.006567077636718750e+02,2.766666603088378906e+01
5.008656616210937500e+02,2.479166603088378906e+01
5.010746154785156250e+02,2.457291603088378906e+01
5.012835693359375000e+02,2.523958396911621094e+01
5.014925231933593750e+02,1.118750000000000000e+01
5.017015075683593750e+02,1.120833301544189453e+01
5.019104614257812500e+02,1.118750000000000000e+01
5.021194152832031250e+02,1.118750000000000000e+01
5.023283691406250000e+02,1.118750000000000000e+01
5.025373229980468750e+02,1.118750000000000000e+01
5.027462768554687500e+02,1.119791698455810547e+01
5.029552307128906250e+02,1.118750000000000000e+01
5.031641845703125000e+02,1.183333301544189453e+01
5.033731384277343750e+02,1.183333301544189453e+01
5.035820922851562500e+02,1.166666698455810547e+01
5.037910461425781250e+02,1.158333301544189453e+01
5.040000000000000000e+02,1.141666698455810547e+01
5.042089538574218750e+02,1.133333301544189453e+01
5.044179077148437500e+02,1.125000000000000000e+01
5.046268615722656250e+02,1.116666698455810547e+01
5.048358154296875000e+02,1.150000000000000000e+01
5.050447692871093750e+02,1.150000000000000000e+01
5.052537231445312500e+02,1.133333301544189453e+01
5.054626770019531250e+02,1.125000000000000000e+01
5.056716308593750000e+02,1.108333301544189453e+01
5.058805847167968750e+02,1.100000000000000000e+01
5.060895385742187500e+02,1.091666698455810547e+01
5.062984924316406250e+02,1.083333301544189453e+01
5.065074768066406250e+02,1.083333301544189453e+01
5.067164306640625000e+02,1.100000000000000000e+01
5.069253845214843750e+02,1.116666698455810547e+01
5.071343383789062500e+02,1.133333301544189453e+01
5.073432922363281250e+02,1.166666698455810547e+01
5.075522460937500000e+02,1.183333301544189453e+01
5.077611999511718750e+02,1.216666698455810547e+01
5.079701538085937500e+02,1.216666698455810547e+01
5.081791076660156250e+02,4.414583206176757812e+01
5.083880615234375000e+02,4.430208206176757812e+01
5.085970153808593750e+02,4.437500000000000000e+01
5.088059692382812500e+02,3.820833206176757812e+01
5.090149230957031250e+02,3.744791793823242188e+01
5.092238769531250000e+02,3.753125000000000000e+01
5.094328308105468750e+02,3.679166793823242188e+01
5.096417846679687500e+02,3.676041793823242188e+01
5.098507385253906250e+02,3.226041793823242188e+01
5.100596923828125000e+02,7.385416507720947266e+00
5.102686462402343750e+02,0.000000000000000000e+00
5.104776000976562500e+02,0.000000000000000000e+00
5.106865539550781250e+02,0.000000000000000000e+00
5.108955078125000000e+02,0.000000000000000000e+00
5.111044921875000000e+02,0.000000000000000000e+00
5.113134460449218750e+02,0.000000000000000000e+00
5.115223999023437500e+02,5.883333206176757812e+01
5.117313537597656250e+02,5.925000000000000000e+01
5.119403076171875000e+02,5.950000000000000000e+01
5.121492309570312500e+02,5.841666793823242188e+01
5.123582153320312500e+02,1.124895858764648438e+02
5.125671386718750000e+02,1.058437500000000000e+02
5.127761230468750000e+02,9.881250000000000000e+01
5.129850463867187500e+02,1.043854141235351562e+02
5.131940307617187500e+02,9.258333587646484375e+01
5.134030151367187500e+02,9.393750000000000000e+01
5.136119384765625000e+02,8.707291412353515625e+01
5.138209228515625000e+02,7.313541412353515625e+01
5.140298461914062500e+02,6.425000000000000000e+01
5.142388305664062500e+02,6.191666793823242188e+01
5.144477539062500000e+02,6.351041793823242188e+01
5.146567382812500000e+02,6.494791412353515625e+01
5.148656616210937500e+02,6.083333492279052734e+00
5.150746459960937500e+02,6.083333492279052734e+00
5.152835693359375000e+02,6.864583492279052734e+00
5.154925537109375000e+02,7.635416507720947266e+00
5.157014770507812500e+02,8.364583015441894531e+00
5.159104614257812500e+02,9.885416984558105469e+00
5.161193847656250000e+02,9.822916984558105469e+00
5.163283691406250000e+02,9.791666984558105469e+00
5.165372924804687500e+02,5.250000000000000000e+00
5.167462768554687500e+02,2.291666746139526367e+00
5.169552001953125000e+02,4.520833492279052734e+00
5.171641845703125000e+02,6.000000000000000000e+00
5.173731079101562500e+02,6.750000000000000000e+00
5.175820922851562500e+02,1.070833301544189453e+01
5.177910156250000000e+02,8.375000000000000000e+00
5.180000000000000000e+02,8.322916984558105469e+00
5.182089843750000000e+02,1.070833301544189453e+01
5.184179077148437500e+02,1.070833301544189453e+01
5.186268920898437500e+02,1.054166698455810547e+01
5.188358154296875000e+02,1.045833301544189453e+01
5.190447998046875000e+02,1.029166698455810547e+01
5.192537231445312500e+02,1.098958301544189453e+01
5.194627075195312500e+02,1.089583301544189453e+01
5.196716308593750000e+02,1.080208301544189453e+01
5.198806152343750000e+02,1.119791698455810547e+01
5.200895385742187500e+02,1.128125000000000000e+01
5.202985229492187500e+02,1.136458301544189453e+01
5.205074462890625000e+02,1.375000000000000000e+01
5.207164306640625000e+02,1.464583301544189453e+01
5.209253540039062500e+02,1.467708301544189453e+01
5.211343383789062500e+02,1.479166698455810547e+01
5.213432617187500000e+02,1.477083301544189453e+01
5.215522460937500000e+02,0.000000000000000000e+00
5.217611694335937500e+02,0.000000000000000000e+00
5.219701538085937500e+02,0.000000000000000000e+00
5.221790771484375000e+02,0.000000000000000000e+00
5.223880615234375000e+02,0.000000000000000000e+00
5.225969848632812500e+02,0.000000000000000000e+00
5.228059692382812500e+02,0.000000000000000000e+00
5.230149536132812500e+02,0.000000000000000000e+00
5.232238769531250000e+02,0.000000000000000000e+00
5.234328613281250000e+02,0.000000000000000000e+00
5.236417846679687500e+02,0.000000000000000000e+00
5.238507690429687500e+02,0.000000000000000000e+00
5.240596923828125000e+02,0.000000000000000000e+00
5.242686767578125000e+02,0.000000000000000000e+00
5.244776000976562500e+02,0.000000000000000000e+00
5.246865844726562500e+02,0.000000000000000000e+00
5.248955078125000000e+02,2.312500000000000000e+00
5.251044921875000000e+02,2.312500000000000000e+00
5.253134155273437500e+02,2.312500000000000000e+00
5.255223999023437500e+02,5.385416507720947266e+00
5.257313232421875000e+02,5.333333492279052734e+00
5.259403076171875000e+02,5.260416507720947266e+00
5.261492309570312500e+02,5.218750000000000000e+00
5.263582153320312500e+02,5.968750000000000000e+00
5.265671386718750000e+02,1.298958301544189453e+01
5.267761230468750000e+02,1.304166698455810547e+01
5.269850463867187500e+02,1.314583301544189453e+01
5.271940307617187500e+02,1.328125000000000000e+01
5.274030151367187500e+02,1.420833301544189453e+01
5.276119384765625000e+02,1.820833396911621094e+01
5.278209228515625000e+02,1.813541603088378906e+01
5.280298461914062500e+02,1.573958301544189453e+01
5.282388305664062500e+02,0.000000000000000000e+00
5.284477539062500000e+02,0.000000000000000000e+00
5.286567382812500000e+02,0.000000000000000000e+00
5.288656616210937500e+02,0.000000000000000000e+00
5.290746459960937500e+02,0.000000000000000000e+00
5.292835693359375000e+02,0.000000000000000000e+00
5.294925537109375000e+02,0.000000000000000000e+00
5.297014770507812500e+02,0.000000000000000000e+00
5.299104614257812500e+02,1.216666698455810547e+01
5.301193847656250000e+02,1.216666698455810547e+01
5.303283691406250000e+02,1.216666698455810547e+01
5.305372924804687500e+02,1.216666698455810547e+01
5.307462768554687500e+02,1.216666698455810547e+01
5.309552001953125000e+02,1.216666698455810547e+01
5.311641845703125000e+02,1.216666698455810547e+01
5.313731079101562500e+02,1.216666698455810547e+01
5.315820922851562500e+02,1.791666603088378906e+01
5.317910156250000000e+02,1.791666603088378906e+01
5.320000000000000000e+02,1.791666603088378906e+01
5.322089843750000000e+02,1.791666603088378906e+01
5.324179077148437500e+02,1.791666603088378906e+01
5.326268920898437500e+02,1.791666603088378906e+01
5.328358154296875000e+02,1.791666603088378906e+01
5.330447998046875000e+02,1.791666603088378906e+01
5.332537231445312500e+02,1.555208301544189453e+01
5.334627075195312500e+02,1.555208301544189453e+01
5.336716308593750000e+02,1.555208301544189453e+01
5.338806152343750000e+02,1.555208301544189453e+01
5.340895385742187500e+02,1.555208301544189453e+01
5.342985229492187500e+02,1.555208301544189453e+01
5.345074462890625000e+02,1.555208301544189453e+01
5.347164306640625000e+02,1.555208301544189453e+01
5.349253540039062500e+02,0.000000000000000000e+00
5.351343383789062500e+02,0.000000000000000000e+00
5.353432617187500000e+02,0.000000000000000000e+00
5.355522460937500000e+02,0.000000000000000000e+00
5.357611694335937500e+02,0.000000000000000000e+00
5.359701538085937500e+02,0.000000000000000000e+00
5.361790771484375000e+02,0.000000000000000000e+00
5.363880615234375000e+02,0.000000000000000000e+00
5.365969848632812500e+02,0.000000000000000000e+00
5.368059692382812500e+02,0.000000000000000000e+00
5.370149536132812500e+02,0.000000000000000000e+00
5.372238769531250000e+02,0.000000000000000000e+00
5.374328613281250000e+02,0.000000000000000000e+00
5.376417846679687500e+02,0.000000000000000000e+00
5.378507690429687500e+02,0.000000000000000000e+00
5.380596923828125000e+02,0.000000000000000000e+00
5.382686767578125000e+02,1.808333396911621094e+01
5.384776000976562500e+02,1.848958396911621094e+01
5.386865844726562500e+02,2.343750000000000000e+01
5.388955078125000000e+02,2.294791603088378906e+01
5.391044921875000000e+02,2.294791603088378906e+01
5.393134155273437500e+02,2.343750000000000000e+01
5.395223999023437500e+02,2.169791603088378906e+01
5.397313232421875000e+02,2.212500000000000000e+01
5.399403076171875000e+02,2.128125000000000000e+01
5.401492309570312500e+02,2.354166603088378906e+01
5.403582153320312500e+02,2.329166603088378906e+01
5.405671386718750000e+02,2.315625000000000000e+01
5.407761230468750000e+02,2.065625000000000000e+01
5.409850463867187500e+02,1.282291698455810547e+01
5.411940307617187500e+02,1.125000000000000000e+01
5.414030151367187500e+02,1.122916698455810547e+01
5.416119384765625000e+02,0.000000000000000000e+00
5.418209228515625000e+02,0.000000000000000000e+00
5.420298461914062500e+02,0.000000000000000000e+00
5.422388305664062500e+02,0.000000000000000000e+00
5.424477539062500000e+02,0.000000000000000000e+00
5.426567382812500000e+02,0.000000000000000000e+00
5.428656616210937500e+02,0.000000000000000000e+00
5.430746459960937500e+02,0.000000000000000000e+00
5.432835693359375000e+02,0.000000000000000000e+00
5.434925537109375000e+02,0.000000000000000000e+00
5.437014770507812500e+02,0.000000000000000000e+00
5.439104614257812500e+02,5.229166507720947266e+00
5.441193847656250000e+02,5.625000000000000000e+00
5.443283691406250000e+02,6.958333492279052734e+00
5.445372924804687500e+02,7.281250000000000000e+00
5.447462768554687500e+02,7.739583492279052734e+00
5.449552001953125000e+02,1.940625000000000000e+01
5.451641845703125000e+02,1.978125000000000000e+01
5.453731079101562500e+02,2.052083396911621094e+01
5.455820922851562500e+02,3.361458206176757812e+01
5.457910156250000000e+02,3.639583206176757812e+01
5.460000000000000000e+02,4.346875000000000000e+01
5.462089843750000000e+02,4.421875000000000000e+01
5.464179077148437500e+02,4.398958206176757812e+01
5.466268920898437500e+02,3.647916793823242188e+01
5.468358154296875000e+02,2.881250000000000000e+01
5.470447998046875000e+02,2.723958396911621094e+01
5.472537231445312500e+02,2.169791603088378906e+01
5.474627075195312500e+02,2.065625000000000000e+01
5.476716308593750000e+02,2.135416603088378906e+01
5.478806152343750000e+02,2.270833396911621094e+01
5.480895385742187500e+02,2.941666603088378906e+01
5.482985229492187500e+02,2.689583396911621094e+01
5.485074462890625000e+02,2.694791603088378906e+01
5.487164306640625000e+02,2.783333396911621094e+01
5.489253540039062500e+02,3.251041793823242188e+01
5.491343383789062500e+02,3.311458206176757812e+01
5.493432617187500000e+02,4.075000000000000000e+01
5.495522460937500000e+02,4.194791793823242188e+01
5.497611694335937500e+02,4.482291793823242188e+01
5.499701538085937500e+02,4.530208206176757812e+01
5.501790771484375000e+02,4.846875000000000000e+01
5.503880615234375000e+02,4.826041793823242188e+01
5.505969848632812500e+02,4.647916793823242188e+01
5.508059692382812500e+02,4.858333206176757812e+01
5.510149536132812500e+02,4.836458206176757812e+01
5.512238769531250000e+02,4.831250000000000000e+01
5.514328613281250000e+02,4.820833206176757812e+01
5.516417846679687500e+02,1.261458301544189453e+01
5.518507690429687500e+02,1.267708301544189453e+01
5.520596923828125000e+02,1.508333301544189453e+01
5.522686767578125000e+02,1.519791698455810547e+01
5.524776000976562500e+02,1.583333301544189453e+01
5.526865844726562500e+02,1.321875000000000000e+01
5.528955078125000000e+02,1.238541698455810547e+01
5.531044921875000000e+02,1.235416698455810547e+01
5.533134155273437500e+02,1.338541698455810547e+01
5.535223999023437500e+02,1.184375000000000000e+01
5.537313232421875000e+02,1.185416698455810547e+01
5.539403076171875000e+02,2.419791603088378906e+01
5.541492309570312500e+02,2.403125000000000000e+01
5.543582153320312500e+02,2.368750000000000000e+01
5.545671386718750000e+02,2.351041603088378906e+01
5.547761230468750000e+02,2.335416603088378906e+01
5.549850463867187500e+02,1.768750000000000000e+01
5.551940307617187500e+02,1.791666603088378906e+01
5.554030151367187500e+02,2.220833396911621094e+01
5.556119384765625000e+02,2.240625000000000000e+01
5.558209228515625000e+02,2.246875000000000000e+01
5.560298461914062500e+02,1.915625000000000000e+01
5.562388305664062500e+02,1.658333396911621094e+01
5.564477539062500000e+02,1.637500000000000000e+01
5.566567382812500000e+02,1.020833301544189453e+01
5.568656616210937500e+02,1.025000000000000000e+01
5.570746459960937500e+02,1.148958301544189453e+01
5.572835693359375000e+02,1.040625000000000000e+01
5.574925537109375000e+02,1.039583301544189453e+01
5.577014770507812500e+02,1.212500000000000000e+01
5.579104614257812500e+02,1.161458301544189453e+01
5.581193847656250000e+02,1.013541698455810547e+01
5.583283691406250000e+02,9.458333015441894531e+00
5.585372924804687500e+02,1.011458301544189453e+01
5.587462768554687500e+02,1.075000000000000000e+01
5.589552001953125000e+02,1.750000000000000000e+01
5.591641845703125000e+02,1.712500000000000000e+01
5.593731079101562500e+02,1.675000000000000000e+01
5.595820922851562500e+02,1.648958396911621094e+01
5.597910156250000000e+02,1.628125000000000000e+01
5.600000000000000000e+02,2.167708396911621094e+01
5.602089843750000000e+02,2.156250000000000000e+01
5.604179077148437500e+02,2.141666603088378906e+01
5.606268920898437500e+02,2.121875000000000000e+01
5.608358154296875000e+02,2.176041603088378906e+01
5.610447998046875000e+02,2.154166603088378906e+01
5.612537231445312500e+02,2.216666603088378906e+01
5.614627075195312500e+02,2.202083396911621094e+01
5.616716308593750000e+02,3.560416793823242188e+01
5.618806152343750000e+02,3.562500000000000000e+01
5.620895385742187500e+02,3.147916603088378906e+01
5.622985229492187500e+02,3.505208206176757812e+01
5.625074462890625000e+02,3.371875000000000000e+01
5.627164306640625000e+02,3.882291793823242188e+01
5.629253540039062500e+02,3.836458206176757812e+01
5.631343383789062500e+02,4.008333206176757812e+01
5.633432617187500000e+02,4.177083206176757812e+01
5.635522460937500000e+02,4.195833206176757812e+01
5.637611694335937500e+02,4.217708206176757812e+01
5.639701538085937500e+02,4.208333206176757812e+01
5.641790771484375000e+02,4.173958206176757812e+01
5.643880615234375000e+02,4.100000000000000000e+01
5.645969848632812500e+02,4.031250000000000000e+01
5.648059692382812500e+02,3.978125000000000000e+01
5.650149536132812500e+02,4.335416793823242188e+01
5.652238769531250000e+02,4.312500000000000000e+01
5.654328613281250000e+02,4.293750000000000000e+01
5.656417846679687500e+02,4.282291793823242188e+01
5.658507690429687500e+02,4.273958206176757812e+01
5.660596923828125000e+02,4.294791793823242188e+01
5.662686767578125000e+02,4.321875000000000000e+01
5.664776000976562500e+02,4.334375000000000000e+01
5.666865844726562500e+02,4.167708206176757812e+01
5.668955078125000000e+02,4.172916793823242188e+01
5.671044921875000000e+02,4.164583206176757812e+01
5.673134155273437500e+02,4.162500000000000000e+01
5.675223999023437500e+02,4.163541793823242188e+01
5.677313232421875000e+02,4.164583206176757812e+01
5.679403076171875000e+02,3.918750000000000000e+01
5.681492309570312500e+02,3.896875000000000000e+01
